SpectraSuite Data File
++++++++++++++++++++++++++++++++++++
Date: Wed Apr 01 06:15:04 PDT 2026
User: lpadilla
Dark Spectrum Present: No
Reference Spectrum Present: No
Number of Sampled Component Spectra: 1
Spectrometers: FLMT02840
Integration Time (usec): 100000 (FLMT02840)
Spectra Averaged: 1 (FLMT02840)
Boxcar Smoothing: 0 (FLMT02840)
Correct for Electrical Dark: No (FLMT02840)
Strobe/Lamp Enabled: No (FLMT02840)
Correct for Detector Non-linearity: No (FLMT02840)
Correct for Stray Light: No (FLMT02840)
Number of Pixels in Processed Spectrum: 3648
>>>>>Begin Processed Spectral Data<<<<<
345.38	2568.15
345.60	2568.15
345.81	2568.15
346.03	2627.54
346.24	2660.31
346.45	2725.85
346.67	2654.17
346.88	2766.81
347.10	2672.60
347.31	2750.42
347.53	2656.22
347.74	2760.66
347.95	2643.93
348.17	2736.09
348.38	2652.12
348.60	2686.94
348.81	2670.55
349.02	2762.71
349.24	2752.47
349.45	2713.56
349.67	2793.43
349.88	2723.80
350.09	2695.13
350.31	2678.74
350.52	2789.33
350.74	2863.06
350.95	2754.52
351.17	2748.37
351.38	2777.05
351.59	2832.34
351.81	2770.90
352.02	2727.89
352.24	2852.82
352.45	2756.57
352.66	2717.65
352.88	2797.53
353.09	2793.43
353.30	2858.96
353.52	2791.38
353.73	2738.13
353.95	2725.85
354.16	2813.91
354.37	2723.80
354.59	2820.05
354.80	2789.33
355.02	2815.96
355.23	2881.49
355.44	2918.36
355.66	2781.14
355.87	2840.53
356.08	2901.97
356.30	2844.63
356.51	2850.77
356.72	2897.88
356.94	2795.48
357.15	2940.88
357.37	2940.88
357.58	2957.27
357.79	2967.51
358.01	3022.80
358.22	2977.75
358.43	3067.86
358.65	3137.49
358.86	3125.20
359.07	3194.83
359.29	3131.34
359.50	3209.17
359.71	3362.76
359.93	3401.68
360.14	3383.24
360.36	3289.04
360.57	3463.12
360.78	3413.96
361.00	3522.51
361.21	3571.66
361.42	3770.31
361.64	3692.49
361.85	3815.37
362.06	3989.44
362.28	4001.73
362.49	4059.07
362.70	4143.04
362.92	4212.67
363.13	4284.35
363.34	4487.10
363.56	4798.39
363.77	4818.87
363.98	5025.72
364.20	5230.51
364.41	5433.26
364.62	5691.31
364.83	5799.85
365.05	6297.50
365.26	6694.81
365.47	7012.24
365.69	7391.12
365.90	7815.05
366.11	8406.91
366.33	8986.49
366.54	9879.40
366.75	10800.99
366.97	11407.19
367.18	12496.71
367.39	13492.02
367.60	14368.55
367.82	15812.37
368.03	17159.93
368.24	18056.94
368.46	19533.53
368.67	21114.56
368.88	22916.77
369.10	24114.83
369.31	25448.06
369.52	27010.66
369.73	28010.07
369.95	29615.68
370.16	31045.16
370.37	32392.72
370.59	33336.84
370.80	34942.44
371.01	37031.37
371.22	37221.83
371.44	39312.81
371.65	39962.01
371.86	41051.53
372.08	42075.52
372.29	42968.43
372.50	43990.37
372.71	44735.83
372.93	45067.60
373.14	44604.76
373.35	46058.82
373.56	46325.05
373.78	46132.54
373.99	45782.34
374.20	46447.93
374.41	46048.58
374.63	44940.63
374.84	45434.19
375.05	44807.51
375.26	44547.42
375.48	44551.51
375.69	43400.55
375.90	42347.90
376.11	42607.99
376.33	41950.59
376.54	40568.21
376.75	40095.13
376.96	39048.62
377.18	38161.85
377.39	37416.39
377.60	35962.33
377.81	35476.96
378.03	34760.17
378.24	33719.81
378.45	33113.61
378.66	31788.57
378.88	30979.62
379.09	30031.41
379.30	29408.83
379.51	28560.97
379.72	27559.52
379.94	26629.74
380.15	26386.03
380.36	25706.10
380.57	24217.23
380.79	23658.14
381.00	22689.45
381.21	22281.90
381.42	21225.15
381.63	20356.81
381.85	19840.72
382.06	19642.07
382.27	18915.04
382.48	18181.87
382.69	17571.57
382.91	17280.76
383.12	16697.09
383.33	15859.47
383.54	15599.38
383.75	14995.23
383.97	14518.05
384.18	13758.25
384.39	13422.39
384.60	12459.84
384.81	12404.55
385.03	11980.62
385.24	11478.86
385.45	11327.32
385.66	10739.55
385.87	10514.27
386.09	10000.23
386.30	9731.95
386.51	9156.47
386.72	8937.34
386.93	8640.38
387.15	8439.68
387.36	8118.15
387.57	7808.90
387.78	7544.72
387.99	7411.60
388.20	6938.52
388.42	6709.15
388.63	6475.68
388.84	6283.17
389.05	5920.68
389.26	5975.97
389.47	5676.97
389.69	5527.47
389.90	5246.90
390.11	5097.39
390.32	4949.94
390.53	4923.32
390.74	4872.12
390.96	4601.79
391.17	4378.56
391.38	4423.61
391.59	4128.70
391.80	4106.18
392.01	4052.93
392.22	3893.19
392.44	3837.89
392.65	3751.88
392.86	3592.14
393.07	3733.45
393.28	3485.64
393.49	3438.54
393.70	3481.55
393.92	3323.85
394.13	3364.81
394.34	3233.74
394.55	3233.74
394.76	3133.39
394.97	3155.92
395.18	3057.62
395.39	3139.54
395.61	3000.27
395.82	3049.43
396.03	2834.39
396.24	3014.61
396.45	2990.03
396.66	2883.54
396.87	2846.68
397.08	2957.27
397.30	2834.39
397.51	2842.58
397.72	2863.06
397.93	2893.78
398.14	2764.76
398.35	2777.05
398.56	2822.10
398.77	2824.15
398.98	2826.20
399.20	2807.77
399.41	2805.72
399.62	2729.94
399.83	2729.94
400.04	2785.24
400.25	2750.42
400.46	2766.81
400.67	2764.76
400.88	2789.33
401.09	2723.80
401.30	2873.30
401.52	2729.94
401.73	2758.61
401.94	2684.89
402.15	2828.24
402.36	2721.75
402.57	2715.61
402.78	2697.17
402.99	2754.52
403.20	2744.28
403.41	2707.41
403.62	2668.50
403.83	2781.14
404.05	2731.99
404.26	2764.76
404.47	2729.94
404.68	2664.41
404.89	2738.13
405.10	2705.37
405.31	2729.94
405.52	2699.22
405.73	2658.26
405.94	2715.61
406.15	2736.09
406.36	2682.84
406.57	2701.27
406.78	2709.46
406.99	2705.37
407.20	2650.07
407.41	2676.70
407.63	2791.38
407.84	2738.13
408.05	2744.28
408.26	2713.56
408.47	2729.94
408.68	2619.35
408.89	2764.76
409.10	2785.24
409.31	2768.85
409.52	2711.51
409.73	2734.04
409.94	2709.46
410.15	2621.40
410.36	2744.28
410.57	2719.70
410.78	2721.75
410.99	2676.70
411.20	2691.03
411.41	2686.94
411.62	2719.70
411.83	2764.76
412.04	2676.70
412.25	2672.60
412.46	2670.55
412.67	2711.51
412.88	2713.56
413.09	2717.65
413.30	2858.96
413.51	2686.94
413.72	2691.03
413.93	2695.13
414.14	2705.37
414.35	2736.09
414.56	2768.85
414.77	2627.54
414.98	2736.09
415.19	2760.66
415.40	2715.61
415.61	2662.36
415.82	2705.37
416.03	2740.18
416.24	2711.51
416.45	2775.00
416.66	2777.05
416.87	2682.84
417.08	2648.02
417.29	2678.74
417.50	2742.23
417.71	2695.13
417.92	2717.65
418.13	2723.80
418.34	2658.26
418.55	2676.70
418.76	2707.41
418.97	2697.17
419.18	2627.54
419.39	2721.75
419.60	2643.93
419.81	2742.23
420.02	2781.14
420.23	2635.74
420.44	2617.30
420.65	2701.27
420.86	2709.46
421.07	2705.37
421.28	2721.75
421.49	2680.79
421.70	2721.75
421.91	2766.81
422.12	2756.57
422.33	2699.22
422.54	2678.74
422.75	2731.99
422.96	2729.94
423.16	2668.50
423.37	2701.27
423.58	2744.28
423.79	2676.70
424.00	2719.70
424.21	2656.22
424.42	2742.23
424.63	2686.94
424.84	2725.85
425.05	2707.41
425.26	2641.88
425.47	2643.93
425.68	2777.05
425.89	2729.94
426.10	2648.02
426.31	2742.23
426.51	2713.56
426.72	2703.32
426.93	2727.89
427.14	2678.74
427.35	2668.50
427.56	2736.09
427.77	2727.89
427.98	2764.76
428.19	2805.72
428.40	2684.89
428.61	2654.17
428.82	2666.46
429.03	2799.57
429.23	2652.12
429.44	2672.60
429.65	2740.18
429.86	2787.29
430.07	2791.38
430.28	2721.75
430.49	2736.09
430.70	2697.17
430.91	2670.55
431.12	2775.00
431.32	2658.26
431.53	2703.32
431.74	2772.95
431.95	2719.70
432.16	2668.50
432.37	2750.42
432.58	2748.37
432.79	2746.33
433.00	2719.70
433.20	2713.56
433.41	2701.27
433.62	2684.89
433.83	2670.55
434.04	2719.70
434.25	2764.76
434.46	2787.29
434.67	2803.67
434.87	2809.81
435.08	2846.68
435.29	2787.29
435.50	2715.61
435.71	2695.13
435.92	2711.51
436.13	2734.04
436.34	2772.95
436.54	2680.79
436.75	2711.51
436.96	2764.76
437.17	2721.75
437.38	2688.98
437.59	2719.70
437.80	2785.24
438.00	2754.52
438.21	2727.89
438.42	2723.80
438.63	2801.62
438.84	2674.65
439.05	2748.37
439.26	2830.29
439.46	2746.33
439.67	2809.81
439.88	2758.61
440.09	2688.98
440.30	2738.13
440.51	2781.14
440.71	2805.72
440.92	2795.48
441.13	2707.41
441.34	2695.13
441.55	2750.42
441.76	2734.04
441.96	2813.91
442.17	2746.33
442.38	2813.91
442.59	2873.30
442.80	2906.07
443.00	2828.24
443.21	2764.76
443.42	2738.13
443.63	2840.53
443.84	2754.52
444.05	2809.81
444.25	2770.90
444.46	2748.37
444.67	2734.04
444.88	2772.95
445.09	2715.61
445.29	2777.05
445.50	2750.42
445.71	2824.15
445.92	2762.71
446.13	2852.82
446.33	2838.48
446.54	2910.16
446.75	2713.56
446.96	2838.48
447.17	2813.91
447.37	2828.24
447.58	2801.62
447.79	2781.14
448.00	2803.67
448.21	2811.86
448.41	2875.35
448.62	2813.91
448.83	2828.24
449.04	2785.24
449.24	2842.58
449.45	2858.96
449.66	2856.92
449.87	2883.54
450.08	2781.14
450.28	2838.48
450.49	2920.40
450.70	2754.52
450.91	2781.14
451.11	2783.19
451.32	2914.26
451.53	2856.92
451.74	2768.85
451.94	2881.49
452.15	2738.13
452.36	2742.23
452.57	2807.77
452.77	2846.68
452.98	2779.09
453.19	2826.20
453.40	2799.57
453.60	2783.19
453.81	2828.24
454.02	2871.25
454.23	2760.66
454.43	2856.92
454.64	2779.09
454.85	2830.29
455.06	2762.71
455.26	2768.85
455.47	2791.38
455.68	2805.72
455.89	2820.05
456.09	2723.80
456.30	2752.47
456.51	2791.38
456.72	2820.05
456.92	2736.09
457.13	2775.00
457.34	2801.62
457.54	2754.52
457.75	2719.70
457.96	2764.76
458.17	2738.13
458.37	2838.48
458.58	2789.33
458.79	2744.28
459.00	2770.90
459.20	2875.35
459.41	2820.05
459.62	2721.75
459.82	2772.95
460.03	2740.18
460.24	2719.70
460.44	2723.80
460.65	2854.87
460.86	2697.17
461.07	2795.48
461.27	2768.85
461.48	2783.19
461.69	2766.81
461.89	2822.10
462.10	2740.18
462.31	2801.62
462.51	2738.13
462.72	2766.81
462.93	2729.94
463.13	2717.65
463.34	2764.76
463.55	2801.62
463.76	2729.94
463.96	2789.33
464.17	2701.27
464.38	2803.67
464.58	2760.66
464.79	2805.72
465.00	2807.77
465.20	2725.85
465.41	2748.37
465.62	2809.81
465.82	2746.33
466.03	2729.94
466.24	2746.33
466.44	2738.13
466.65	2731.99
466.86	2760.66
467.06	2686.94
467.27	2764.76
467.48	2772.95
467.68	2697.17
467.89	2715.61
468.10	2731.99
468.30	2738.13
468.51	2717.65
468.72	2711.51
468.92	2766.81
469.13	2738.13
469.33	2723.80
469.54	2779.09
469.75	2768.85
469.95	2775.00
470.16	2719.70
470.37	2811.86
470.57	2711.51
470.78	2658.26
470.99	2758.61
471.19	2801.62
471.40	2854.87
471.60	2740.18
471.81	2775.00
472.02	2721.75
472.22	2740.18
472.43	2652.12
472.64	2734.04
472.84	2701.27
473.05	2723.80
473.25	2754.52
473.46	2713.56
473.67	2680.79
473.87	2820.05
474.08	2729.94
474.29	2731.99
474.49	2740.18
474.70	2691.03
474.90	2723.80
475.11	2801.62
475.32	2746.33
475.52	2738.13
475.73	2717.65
475.93	2799.57
476.14	2691.03
476.35	2719.70
476.55	2744.28
476.76	2742.23
476.96	2709.46
477.17	2787.29
477.38	2789.33
477.58	2756.57
477.79	2713.56
477.99	2754.52
478.20	2785.24
478.40	2766.81
478.61	2799.57
478.82	2752.47
479.02	2695.13
479.23	2711.51
479.43	2709.46
479.64	2828.24
479.84	2744.28
480.05	2752.47
480.26	2711.51
480.46	2787.29
480.67	2793.43
480.87	2695.13
481.08	2670.55
481.28	2707.41
481.49	2777.05
481.70	2674.65
481.90	2846.68
482.11	2789.33
482.31	2742.23
482.52	2801.62
482.72	2811.86
482.93	2803.67
483.13	2754.52
483.34	2807.77
483.55	2777.05
483.75	2777.05
483.96	2703.32
484.16	2805.72
484.37	2734.04
484.57	2785.24
484.78	2756.57
484.98	2723.80
485.19	2701.27
485.39	2693.08
485.60	2764.76
485.81	2713.56
486.01	2693.08
486.22	2738.13
486.42	2734.04
486.63	2811.86
486.83	2781.14
487.04	2770.90
487.24	2785.24
487.45	2779.09
487.65	2805.72
487.86	2795.48
488.06	2838.48
488.27	2723.80
488.47	2719.70
488.68	2738.13
488.88	2719.70
489.09	2848.72
489.29	2750.42
489.50	2830.29
489.70	2850.77
489.91	2748.37
490.11	2758.61
490.32	2877.40
490.52	2873.30
490.73	2736.09
490.93	2770.90
491.14	2770.90
491.34	2760.66
491.55	2820.05
491.75	2813.91
491.96	2793.43
492.16	2891.73
492.37	2764.76
492.57	2793.43
492.78	2799.57
492.98	2813.91
493.19	2760.66
493.39	2836.44
493.60	2785.24
493.80	2852.82
494.01	2861.01
494.21	2826.20
494.42	2813.91
494.62	2772.95
494.83	2764.76
495.03	2781.14
495.24	2736.09
495.44	2848.72
495.64	2803.67
495.85	2807.77
496.05	2799.57
496.26	2793.43
496.46	2840.53
496.67	2789.33
496.87	2775.00
497.08	2709.46
497.28	2760.66
497.49	2848.72
497.69	2848.72
497.89	2836.44
498.10	2852.82
498.30	2846.68
498.51	2791.38
498.71	2791.38
498.92	2760.66
499.12	2834.39
499.33	2754.52
499.53	2832.34
499.73	2803.67
499.94	2781.14
500.14	2875.35
500.35	2801.62
500.55	2832.34
500.76	2805.72
500.96	2856.92
501.16	2830.29
501.37	2834.39
501.57	2758.61
501.78	2828.24
501.98	2799.57
502.19	2856.92
502.39	2797.53
502.59	2746.33
502.80	2863.06
503.00	2828.24
503.21	2754.52
503.41	2861.01
503.62	2834.39
503.82	2975.70
504.02	2858.96
504.23	2789.33
504.43	2834.39
504.64	2834.39
504.84	2813.91
505.04	2797.53
505.25	2885.59
505.45	2842.58
505.66	2854.87
505.86	2893.78
506.06	2783.19
506.27	2867.16
506.47	2809.81
506.68	2848.72
506.88	2932.69
507.08	2844.63
507.29	2699.22
507.49	2883.54
507.69	2807.77
507.90	2867.16
508.10	2854.87
508.31	2865.11
508.51	2781.14
508.71	2877.40
508.92	2879.44
509.12	2856.92
509.32	2815.96
509.53	2869.20
509.73	2895.83
509.94	2844.63
510.14	2815.96
510.34	2824.15
510.55	2867.16
510.75	2901.97
510.95	2748.37
511.16	2775.00
511.36	2807.77
511.56	2895.83
511.77	2764.76
511.97	2856.92
512.17	2803.67
512.38	2844.63
512.58	2803.67
512.79	2873.30
512.99	2828.24
513.19	2850.77
513.40	2863.06
513.60	2904.02
513.80	2869.20
514.01	2801.62
514.21	2920.40
514.41	2877.40
514.62	2779.09
514.82	2912.21
515.02	2822.10
515.23	2746.33
515.43	2830.29
515.63	2867.16
515.84	2787.29
516.04	2865.11
516.24	2871.25
516.45	2840.53
516.65	2842.58
516.85	2826.20
517.05	2811.86
517.26	2861.01
517.46	2856.92
517.66	2928.60
517.87	2781.14
518.07	2826.20
518.27	2879.44
518.48	2893.78
518.68	2873.30
518.88	2848.72
519.09	2912.21
519.29	2865.11
519.49	2736.09
519.69	2914.26
519.90	2938.84
520.10	2893.78
520.30	2725.85
520.51	2920.40
520.71	2787.29
520.91	2844.63
521.12	2867.16
521.32	2828.24
521.52	2869.20
521.72	2830.29
521.93	2867.16
522.13	2875.35
522.33	2785.24
522.53	2875.35
522.74	2815.96
522.94	2826.20
523.14	2785.24
523.35	2797.53
523.55	2842.58
523.75	2930.64
523.95	2818.00
524.16	2830.29
524.36	2848.72
524.56	2723.80
524.76	2832.34
524.97	2813.91
525.17	2881.49
525.37	2861.01
525.57	2861.01
525.78	2897.88
525.98	2848.72
526.18	2770.90
526.38	2854.87
526.59	2879.44
526.79	2852.82
526.99	2865.11
527.19	2883.54
527.40	2930.64
527.60	2865.11
527.80	2994.13
528.00	2791.38
528.21	2891.73
528.41	2885.59
528.61	2910.16
528.81	2742.23
529.02	2975.70
529.22	2789.33
529.42	2871.25
529.62	2781.14
529.83	2869.20
530.03	2883.54
530.23	2848.72
530.43	2779.09
530.63	2832.34
530.84	2838.48
531.04	2928.60
531.24	2840.53
531.44	2822.10
531.65	2861.01
531.85	2852.82
532.05	2865.11
532.25	2910.16
532.45	2824.15
532.66	2777.05
532.86	2801.62
533.06	2877.40
533.26	2826.20
533.46	2897.88
533.67	2850.77
533.87	2797.53
534.07	2842.58
534.27	2801.62
534.47	2844.63
534.68	2805.72
534.88	2840.53
535.08	2908.12
535.28	2920.40
535.48	2826.20
535.68	2840.53
535.89	2897.88
536.09	2834.39
536.29	2828.24
536.49	2838.48
536.69	2775.00
536.90	2836.44
537.10	2908.12
537.30	2846.68
537.50	2803.67
537.70	2865.11
537.90	2940.88
538.11	2813.91
538.31	2844.63
538.51	2899.92
538.71	2775.00
538.91	2834.39
539.11	2754.52
539.32	2834.39
539.52	2813.91
539.72	2865.11
539.92	2760.66
540.12	2940.88
540.32	2756.57
540.52	2766.81
540.73	2828.24
540.93	2904.02
541.13	2850.77
541.33	2848.72
541.53	2836.44
541.73	2789.33
541.93	2873.30
542.14	2883.54
542.34	2811.86
542.54	2834.39
542.74	2828.24
542.94	2865.11
543.14	2863.06
543.34	2887.64
543.55	2838.48
543.75	2867.16
543.95	2877.40
544.15	2795.48
544.35	2775.00
544.55	2705.37
544.75	2920.40
544.95	2834.39
545.16	2838.48
545.36	2848.72
545.56	2768.85
545.76	2795.48
545.96	2867.16
546.16	2820.05
546.36	2873.30
546.56	2863.06
546.76	2801.62
546.97	2826.20
547.17	2813.91
547.37	2811.86
547.57	2844.63
547.77	2801.62
547.97	2781.14
548.17	2983.89
548.37	2818.00
548.57	2858.96
548.77	2826.20
548.97	2914.26
549.18	2842.58
549.38	2801.62
549.58	2850.77
549.78	2871.25
549.98	2856.92
550.18	2777.05
550.38	2858.96
550.58	2920.40
550.78	2861.01
550.98	2803.67
551.18	2830.29
551.38	2867.16
551.59	2906.07
551.79	2879.44
551.99	2863.06
552.19	2861.01
552.39	2818.00
552.59	2807.77
552.79	2799.57
552.99	2746.33
553.19	2895.83
553.39	2818.00
553.59	2840.53
553.79	2906.07
553.99	2809.81
554.19	2861.01
554.39	2834.39
554.59	2775.00
554.79	2803.67
554.99	2740.18
555.20	2830.29
555.40	2846.68
555.60	2873.30
555.80	2846.68
556.00	2820.05
556.20	2783.19
556.40	2861.01
556.60	2811.86
556.80	2746.33
557.00	2797.53
557.20	2918.36
557.40	2813.91
557.60	2822.10
557.80	2793.43
558.00	2861.01
558.20	2797.53
558.40	2815.96
558.60	2828.24
558.80	2908.12
559.00	2809.81
559.20	2848.72
559.40	2836.44
559.60	2854.87
559.80	2858.96
560.00	2854.87
560.20	2807.77
560.40	2793.43
560.60	2799.57
560.80	2891.73
561.00	2799.57
561.20	2811.86
561.40	2768.85
561.60	2824.15
561.80	2899.92
562.00	2865.11
562.20	2813.91
562.40	2834.39
562.60	2906.07
562.80	2785.24
563.00	2766.81
563.20	2910.16
563.40	2826.20
563.60	2844.63
563.80	2822.10
564.00	2877.40
564.20	2858.96
564.40	2940.88
564.60	2928.60
564.80	2815.96
565.00	2830.29
565.20	2826.20
565.40	2858.96
565.60	2803.67
565.80	2856.92
566.00	2873.30
566.20	2797.53
566.40	2809.81
566.60	2822.10
566.80	2832.34
567.00	2750.42
567.19	2828.24
567.39	2858.96
567.59	2828.24
567.79	2783.19
567.99	2869.20
568.19	2809.81
568.39	2977.75
568.59	2871.25
568.79	2885.59
568.99	2768.85
569.19	2703.32
569.39	2828.24
569.59	2811.86
569.79	2932.69
569.99	2891.73
570.19	2801.62
570.39	2801.62
570.59	2850.77
570.78	2867.16
570.98	2904.02
571.18	2723.80
571.38	2793.43
571.58	2809.81
571.78	2826.20
571.98	2901.97
572.18	2828.24
572.38	2797.53
572.58	2822.10
572.78	2944.98
572.98	2842.58
573.18	2781.14
573.37	2877.40
573.57	2803.67
573.77	2881.49
573.97	2912.21
574.17	2807.77
574.37	2846.68
574.57	2797.53
574.77	2865.11
574.97	2865.11
575.17	2766.81
575.36	2836.44
575.56	2754.52
575.76	2799.57
575.96	2811.86
576.16	2861.01
576.36	2846.68
576.56	2830.29
576.76	2910.16
576.96	2842.58
577.15	2916.31
577.35	2787.29
577.55	2832.34
577.75	2883.54
577.95	2871.25
578.15	2797.53
578.35	2875.35
578.55	2893.78
578.74	2904.02
578.94	2906.07
579.14	2832.34
579.34	2805.72
579.54	2781.14
579.74	2861.01
579.94	2779.09
580.14	2897.88
580.33	2824.15
580.53	2840.53
580.73	2772.95
580.93	2834.39
581.13	2807.77
581.33	2713.56
581.52	2836.44
581.72	2865.11
581.92	2785.24
582.12	2758.61
582.32	2916.31
582.52	2863.06
582.72	2807.77
582.91	2801.62
583.11	2815.96
583.31	2826.20
583.51	2910.16
583.71	2775.00
583.91	2830.29
584.10	2877.40
584.30	2809.81
584.50	2772.95
584.70	2820.05
584.90	2852.82
585.10	2838.48
585.29	2826.20
585.49	2840.53
585.69	2826.20
585.89	2879.44
586.09	2832.34
586.28	2887.64
586.48	2885.59
586.68	2768.85
586.88	2828.24
587.08	2775.00
587.28	2824.15
587.47	2805.72
587.67	2777.05
587.87	2789.33
588.07	2799.57
588.27	2795.48
588.46	2775.00
588.66	2834.39
588.86	2701.27
589.06	2922.45
589.26	2813.91
589.45	2840.53
589.65	2887.64
589.85	2869.20
590.05	2885.59
590.24	2803.67
590.44	2766.81
590.64	2893.78
590.84	2932.69
591.04	2908.12
591.23	2867.16
591.43	2852.82
591.63	2875.35
591.83	2842.58
592.02	2727.89
592.22	2838.48
592.42	2805.72
592.62	2731.99
592.82	2887.64
593.01	2777.05
593.21	2770.90
593.41	2799.57
593.61	2861.01
593.80	2783.19
594.00	2813.91
594.20	2744.28
594.40	2828.24
594.59	2932.69
594.79	2754.52
594.99	2815.96
595.19	2822.10
595.38	2826.20
595.58	2863.06
595.78	2805.72
595.98	2832.34
596.17	2807.77
596.37	2715.61
596.57	2852.82
596.77	2803.67
596.96	2885.59
597.16	2775.00
597.36	2811.86
597.55	2801.62
597.75	2813.91
597.95	2822.10
598.15	2803.67
598.34	2879.44
598.54	2977.75
598.74	2893.78
598.94	2836.44
599.13	2740.18
599.33	2844.63
599.53	2852.82
599.72	2887.64
599.92	2805.72
600.12	2815.96
600.32	2809.81
600.51	2854.87
600.71	2832.34
600.91	2910.16
601.10	2779.09
601.30	2818.00
601.50	2877.40
601.69	2807.77
601.89	2740.18
602.09	2748.37
602.29	2727.89
602.48	2822.10
602.68	2750.42
602.88	2725.85
603.07	2799.57
603.27	2826.20
603.47	2840.53
603.66	2897.88
603.86	2832.34
604.06	2734.04
604.25	2801.62
604.45	2762.71
604.65	2820.05
604.84	2906.07
605.04	2766.81
605.24	2830.29
605.43	2736.09
605.63	2793.43
605.83	2775.00
606.02	2795.48
606.22	2820.05
606.42	2760.66
606.61	2850.77
606.81	2848.72
607.01	2772.95
607.20	2760.66
607.40	2715.61
607.60	2850.77
607.79	2734.04
607.99	2832.34
608.19	2760.66
608.38	2979.79
608.58	2883.54
608.78	2828.24
608.97	2836.44
609.17	2801.62
609.37	2811.86
609.56	2744.28
609.76	2858.96
609.95	2809.81
610.15	2797.53
610.35	2854.87
610.54	2805.72
610.74	2793.43
610.94	2789.33
611.13	2885.59
611.33	2738.13
611.52	2783.19
611.72	2797.53
611.92	2811.86
612.11	2818.00
612.31	2838.48
612.51	2791.38
612.70	2775.00
612.90	2916.31
613.09	2846.68
613.29	2836.44
613.49	2889.68
613.68	2766.81
613.88	2863.06
614.07	2791.38
614.27	2772.95
614.47	2680.79
614.66	2820.05
614.86	2828.24
615.05	2795.48
615.25	2799.57
615.45	2785.24
615.64	2682.84
615.84	2838.48
616.03	2826.20
616.23	2775.00
616.43	2768.85
616.62	2725.85
616.82	2738.13
617.01	2801.62
617.21	2877.40
617.40	2846.68
617.60	2844.63
617.80	2818.00
617.99	2813.91
618.19	2891.73
618.38	2766.81
618.58	2846.68
618.78	2777.05
618.97	2844.63
619.17	2768.85
619.36	2750.42
619.56	2779.09
619.75	2854.87
619.95	2826.20
620.14	2764.76
620.34	2799.57
620.54	2846.68
620.73	2844.63
620.93	2883.54
621.12	2746.33
621.32	2873.30
621.51	2811.86
621.71	2752.47
621.90	2740.18
622.10	2813.91
622.29	2693.08
622.49	2756.57
622.69	2842.58
622.88	2856.92
623.08	2725.85
623.27	2738.13
623.47	2852.82
623.66	2826.20
623.86	2815.96
624.05	2754.52
624.25	2793.43
624.44	2777.05
624.64	2772.95
624.83	2729.94
625.03	2916.31
625.22	2752.47
625.42	2801.62
625.61	2770.90
625.81	2731.99
626.00	2863.06
626.20	2813.91
626.39	2744.28
626.59	2858.96
626.79	2815.96
626.98	2787.29
627.18	2840.53
627.37	2789.33
627.57	2723.80
627.76	2705.37
627.96	2801.62
628.15	2803.67
628.35	2881.49
628.54	2799.57
628.73	2719.70
628.93	2826.20
629.12	2781.14
629.32	2832.34
629.51	2811.86
629.71	2731.99
629.90	2904.02
630.10	2729.94
630.29	2820.05
630.49	2719.70
630.68	2672.60
630.88	2795.48
631.07	2863.06
631.27	2797.53
631.46	2785.24
631.66	2666.46
631.85	2736.09
632.05	2811.86
632.24	2795.48
632.44	2809.81
632.63	2688.98
632.82	2736.09
633.02	2772.95
633.21	2777.05
633.41	2830.29
633.60	2727.89
633.80	2772.95
633.99	2783.19
634.19	2822.10
634.38	2750.42
634.58	2801.62
634.77	2820.05
634.96	2750.42
635.16	2766.81
635.35	2779.09
635.55	2785.24
635.74	2600.92
635.94	2807.77
636.13	2959.31
636.32	2756.57
636.52	2842.58
636.71	2815.96
636.91	2734.04
637.10	2854.87
637.30	2746.33
637.49	2731.99
637.68	2738.13
637.88	2861.01
638.07	2754.52
638.27	2789.33
638.46	2746.33
638.66	2740.18
638.85	2768.85
639.04	2801.62
639.24	2717.65
639.43	2695.13
639.63	2750.42
639.82	2801.62
640.01	2748.37
640.21	2746.33
640.40	2691.03
640.60	2758.61
640.79	2809.81
640.98	2746.33
641.18	2748.37
641.37	2836.44
641.57	2639.83
641.76	2723.80
641.95	2785.24
642.15	2766.81
642.34	2793.43
642.53	2785.24
642.73	2742.23
642.92	2785.24
643.12	2779.09
643.31	2764.76
643.50	2674.65
643.70	2799.57
643.89	2727.89
644.08	2777.05
644.28	2779.09
644.47	2820.05
644.67	2779.09
644.86	2772.95
645.05	2813.91
645.25	2736.09
645.44	2772.95
645.63	2699.22
645.83	2668.50
646.02	2701.27
646.21	2756.57
646.41	2680.79
646.60	2770.90
646.80	2701.27
646.99	2783.19
647.18	2652.12
647.38	2633.69
647.57	2723.80
647.76	2885.59
647.96	2762.71
648.15	2811.86
648.34	2697.17
648.54	2738.13
648.73	2715.61
648.92	2641.88
649.12	2727.89
649.31	2678.74
649.50	2723.80
649.70	2766.81
649.89	2750.42
650.08	2801.62
650.28	2764.76
650.47	2815.96
650.66	2738.13
650.86	2770.90
651.05	2781.14
651.24	2746.33
651.43	2746.33
651.63	2772.95
651.82	2682.84
652.01	2795.48
652.21	2777.05
652.40	2777.05
652.59	2734.04
652.79	2660.31
652.98	2744.28
653.17	2686.94
653.36	2731.99
653.56	2729.94
653.75	2684.89
653.94	2736.09
654.14	2867.16
654.33	2779.09
654.52	2838.48
654.72	2750.42
654.91	2756.57
655.10	2826.20
655.29	2715.61
655.49	2734.04
655.68	2709.46
655.87	2717.65
656.06	2645.98
656.26	2783.19
656.45	2770.90
656.64	2770.90
656.84	2713.56
657.03	2703.32
657.22	2701.27
657.41	2768.85
657.61	2772.95
657.80	2838.48
657.99	2670.55
658.18	2787.29
658.38	2830.29
658.57	2623.45
658.76	2672.60
658.95	2744.28
659.15	2834.39
659.34	2697.17
659.53	2830.29
659.72	2723.80
659.92	2760.66
660.11	2674.65
660.30	2818.00
660.49	2684.89
660.69	2705.37
660.88	2625.50
661.07	2738.13
661.26	2822.10
661.46	2762.71
661.65	2731.99
661.84	2648.02
662.03	2740.18
662.23	2725.85
662.42	2777.05
662.61	2717.65
662.80	2674.65
662.99	2734.04
663.19	2721.75
663.38	2764.76
663.57	2660.31
663.76	2648.02
663.95	2852.82
664.15	2723.80
664.34	2676.70
664.53	2713.56
664.72	2736.09
664.92	2785.24
665.11	2779.09
665.30	2754.52
665.49	2670.55
665.68	2645.98
665.88	2785.24
666.07	2768.85
666.26	2695.13
666.45	2822.10
666.64	2715.61
666.83	2740.18
667.03	2707.41
667.22	2744.28
667.41	2697.17
667.60	2709.46
667.79	2725.85
667.99	2676.70
668.18	2736.09
668.37	2674.65
668.56	2721.75
668.75	2783.19
668.94	2762.71
669.14	2662.36
669.33	2758.61
669.52	2863.06
669.71	2660.31
669.90	2650.07
670.09	2715.61
670.29	2775.00
670.48	2783.19
670.67	2754.52
670.86	2779.09
671.05	2697.17
671.24	2660.31
671.44	2746.33
671.63	2695.13
671.82	2666.46
672.01	2809.81
672.20	2697.17
672.39	2719.70
672.58	2658.26
672.78	2787.29
672.97	2662.36
673.16	2695.13
673.35	2633.69
673.54	2701.27
673.73	2809.81
673.92	2686.94
674.12	2715.61
674.31	2750.42
674.50	2758.61
674.69	2781.14
674.88	2686.94
675.07	2754.52
675.26	2729.94
675.45	2680.79
675.65	2643.93
675.84	2674.65
676.03	2723.80
676.22	2699.22
676.41	2740.18
676.60	2664.41
676.79	2680.79
676.98	2668.50
677.17	2725.85
677.37	2688.98
677.56	2703.32
677.75	2711.51
677.94	2660.31
678.13	2705.37
678.32	2699.22
678.51	2744.28
678.70	2760.66
678.89	2693.08
679.08	2727.89
679.27	2664.41
679.47	2686.94
679.66	2674.65
679.85	2762.71
680.04	2727.89
680.23	2686.94
680.42	2699.22
680.61	2791.38
680.80	2678.74
680.99	2703.32
681.18	2658.26
681.37	2721.75
681.56	2635.74
681.75	2695.13
681.95	2703.32
682.14	2672.60
682.33	2682.84
682.52	2607.06
682.71	2719.70
682.90	2740.18
683.09	2731.99
683.28	2717.65
683.47	2699.22
683.66	2703.32
683.85	2672.60
684.04	2824.15
684.23	2717.65
684.42	2672.60
684.61	2727.89
684.80	2703.32
684.99	2684.89
685.18	2746.33
685.37	2699.22
685.57	2772.95
685.76	2637.78
685.95	2754.52
686.14	2650.07
686.33	2697.17
686.52	2779.09
686.71	2715.61
686.90	2756.57
687.09	2602.97
687.28	2785.24
687.47	2727.89
687.66	2742.23
687.85	2680.79
688.04	2688.98
688.23	2691.03
688.42	2711.51
688.61	2725.85
688.80	2588.63
688.99	2670.55
689.18	2705.37
689.37	2674.65
689.56	2721.75
689.75	2650.07
689.94	2756.57
690.13	2678.74
690.32	2701.27
690.51	2682.84
690.70	2725.85
690.89	2701.27
691.08	2703.32
691.27	2713.56
691.46	2721.75
691.65	2631.64
691.84	2643.93
692.03	2707.41
692.22	2650.07
692.41	2699.22
692.60	2772.95
692.79	2697.17
692.98	2697.17
693.17	2742.23
693.36	2779.09
693.55	2713.56
693.74	2666.46
693.93	2686.94
694.12	2701.27
694.31	2674.65
694.50	2797.53
694.68	2602.97
694.87	2719.70
695.06	2717.65
695.25	2672.60
695.44	2779.09
695.63	2738.13
695.82	2641.88
696.01	2688.98
696.20	2752.47
696.39	2678.74
696.58	2691.03
696.77	2750.42
696.96	2736.09
697.15	2662.36
697.34	2674.65
697.53	2627.54
697.72	2660.31
697.91	2691.03
698.10	2748.37
698.28	2754.52
698.47	2725.85
698.66	2738.13
698.85	2717.65
699.04	2762.71
699.23	2723.80
699.42	2729.94
699.61	2682.84
699.80	2664.41
699.99	2670.55
700.18	2758.61
700.37	2691.03
700.56	2680.79
700.74	2695.13
700.93	2703.32
701.12	2750.42
701.31	2672.60
701.50	2600.92
701.69	2686.94
701.88	2686.94
702.07	2758.61
702.26	2576.34
702.45	2688.98
702.63	2666.46
702.82	2686.94
703.01	2721.75
703.20	2721.75
703.39	2703.32
703.58	2754.52
703.77	2719.70
703.96	2654.17
704.15	2731.99
704.33	2723.80
704.52	2703.32
704.71	2682.84
704.90	2637.78
705.09	2746.33
705.28	2688.98
705.47	2740.18
705.66	2680.79
705.84	2727.89
706.03	2682.84
706.22	2658.26
706.41	2680.79
706.60	2740.18
706.79	2666.46
706.98	2631.64
707.16	2766.81
707.35	2744.28
707.54	2602.97
707.73	2758.61
707.92	2715.61
708.11	2709.46
708.30	2670.55
708.48	2590.68
708.67	2684.89
708.86	2660.31
709.05	2664.41
709.24	2576.34
709.43	2703.32
709.61	2705.37
709.80	2652.12
709.99	2715.61
710.18	2684.89
710.37	2678.74
710.56	2772.95
710.74	2725.85
710.93	2652.12
711.12	2734.04
711.31	2764.76
711.50	2688.98
711.69	2779.09
711.87	2766.81
712.06	2688.98
712.25	2693.08
712.44	2711.51
712.63	2744.28
712.81	2643.93
713.00	2703.32
713.19	2717.65
713.38	2772.95
713.57	2760.66
713.76	2734.04
713.94	2691.03
714.13	2713.56
714.32	2746.33
714.51	2719.70
714.70	2660.31
714.88	2758.61
715.07	2695.13
715.26	2682.84
715.45	2658.26
715.63	2705.37
715.82	2656.22
716.01	2633.69
716.20	2652.12
716.39	2746.33
716.57	2662.36
716.76	2740.18
716.95	2693.08
717.14	2783.19
717.32	2645.98
717.51	2633.69
717.70	2693.08
717.89	2725.85
718.08	2660.31
718.26	2781.14
718.45	2688.98
718.64	2721.75
718.83	2713.56
719.01	2656.22
719.20	2709.46
719.39	2691.03
719.58	2723.80
719.76	2682.84
719.95	2662.36
720.14	2643.93
720.33	2631.64
720.51	2766.81
720.70	2639.83
720.89	2682.84
721.08	2688.98
721.26	2654.17
721.45	2713.56
721.64	2715.61
721.83	2627.54
722.01	2662.36
722.20	2658.26
722.39	2666.46
722.57	2754.52
722.76	2713.56
722.95	2670.55
723.14	2742.23
723.32	2705.37
723.51	2621.40
723.70	2719.70
723.88	2674.65
724.07	2746.33
724.26	2609.11
724.45	2744.28
724.63	2686.94
724.82	2590.68
725.01	2760.66
725.19	2729.94
725.38	2740.18
725.57	2670.55
725.76	2621.40
725.94	2711.51
726.13	2764.76
726.32	2668.50
726.50	2658.26
726.69	2666.46
726.88	2752.47
727.06	2738.13
727.25	2688.98
727.44	2709.46
727.62	2619.35
727.81	2686.94
728.00	2744.28
728.19	2756.57
728.37	2705.37
728.56	2705.37
728.75	2699.22
728.93	2605.02
729.12	2627.54
729.31	2633.69
729.49	2605.02
729.68	2725.85
729.87	2682.84
730.05	2680.79
730.24	2656.22
730.43	2654.17
730.61	2688.98
730.80	2635.74
730.99	2637.78
731.17	2686.94
731.36	2670.55
731.55	2695.13
731.73	2639.83
731.92	2658.26
732.10	2654.17
732.29	2707.41
732.48	2674.65
732.66	2650.07
732.85	2709.46
733.04	2707.41
733.22	2721.75
733.41	2734.04
733.60	2725.85
733.78	2709.46
733.97	2676.70
734.15	2650.07
734.34	2639.83
734.53	2738.13
734.71	2660.31
734.90	2680.79
735.09	2693.08
735.27	2617.30
735.46	2662.36
735.64	2635.74
735.83	2617.30
736.02	2721.75
736.20	2709.46
736.39	2744.28
736.57	2766.81
736.76	2738.13
736.95	2756.57
737.13	2578.39
737.32	2645.98
737.51	2758.61
737.69	2707.41
737.88	2713.56
738.06	2578.39
738.25	2625.50
738.43	2607.06
738.62	2705.37
738.81	2731.99
738.99	2693.08
739.18	2615.26
739.36	2797.53
739.55	2674.65
739.74	2709.46
739.92	2684.89
740.11	2650.07
740.29	2652.12
740.48	2656.22
740.66	2746.33
740.85	2762.71
741.04	2738.13
741.22	2725.85
741.41	2731.99
741.59	2576.34
741.78	2658.26
741.96	2797.53
742.15	2717.65
742.34	2684.89
742.52	2742.23
742.71	2672.60
742.89	2643.93
743.08	2795.48
743.26	2709.46
743.45	2725.85
743.63	2699.22
743.82	2721.75
744.00	2691.03
744.19	2701.27
744.38	2668.50
744.56	2664.41
744.75	2711.51
744.93	2705.37
745.12	2734.04
745.30	2713.56
745.49	2736.09
745.67	2695.13
745.86	2740.18
746.04	2635.74
746.23	2609.11
746.41	2658.26
746.60	2691.03
746.78	2697.17
746.97	2627.54
747.15	2705.37
747.34	2721.75
747.53	2734.04
747.71	2777.05
747.90	2754.52
748.08	2658.26
748.27	2723.80
748.45	2672.60
748.64	2629.59
748.82	2621.40
749.01	2656.22
749.19	2729.94
749.38	2731.99
749.56	2756.57
749.75	2785.24
749.93	2670.55
750.12	2654.17
750.30	2705.37
750.48	2717.65
750.67	2723.80
750.85	2654.17
751.04	2691.03
751.22	2727.89
751.41	2660.31
751.59	2668.50
751.78	2723.80
751.96	2775.00
752.15	2715.61
752.33	2680.79
752.52	2742.23
752.70	2713.56
752.89	2811.86
753.07	2660.31
753.26	2723.80
753.44	2680.79
753.63	2670.55
753.81	2674.65
753.99	2705.37
754.18	2664.41
754.36	2666.46
754.55	2670.55
754.73	2680.79
754.92	2674.65
755.10	2650.07
755.29	2746.33
755.47	2736.09
755.65	2666.46
755.84	2639.83
756.02	2742.23
756.21	2731.99
756.39	2670.55
756.58	2717.65
756.76	2662.36
756.95	2734.04
757.13	2660.31
757.31	2654.17
757.50	2668.50
757.68	2621.40
757.87	2725.85
758.05	2775.00
758.23	2715.61
758.42	2668.50
758.60	2625.50
758.79	2602.97
758.97	2668.50
759.16	2656.22
759.34	2750.42
759.52	2680.79
759.71	2660.31
759.89	2594.78
760.08	2719.70
760.26	2627.54
760.44	2723.80
760.63	2602.97
760.81	2738.13
761.00	2686.94
761.18	2684.89
761.36	2742.23
761.55	2701.27
761.73	2678.74
761.92	2719.70
762.10	2643.93
762.28	2729.94
762.47	2725.85
762.65	2584.54
762.83	2691.03
763.02	2635.74
763.20	2695.13
763.39	2660.31
763.57	2713.56
763.75	2705.37
763.94	2684.89
764.12	2641.88
764.30	2701.27
764.49	2707.41
764.67	2768.85
764.85	2688.98
765.04	2631.64
765.22	2693.08
765.41	2688.98
765.59	2703.32
765.77	2645.98
765.96	2703.32
766.14	2619.35
766.32	2707.41
766.51	2768.85
766.69	2625.50
766.87	2678.74
767.06	2693.08
767.24	2680.79
767.42	2764.76
767.61	2721.75
767.79	2641.88
767.97	2701.27
768.16	2686.94
768.34	2648.02
768.52	2682.84
768.71	2672.60
768.89	2738.13
769.07	2744.28
769.26	2605.02
769.44	2602.97
769.62	2682.84
769.81	2768.85
769.99	2756.57
770.17	2637.78
770.36	2754.52
770.54	2684.89
770.72	2691.03
770.90	2656.22
771.09	2670.55
771.27	2670.55
771.45	2705.37
771.64	2664.41
771.82	2695.13
772.00	2740.18
772.19	2715.61
772.37	2637.78
772.55	2576.34
772.73	2666.46
772.92	2766.81
773.10	2680.79
773.28	2609.11
773.47	2770.90
773.65	2680.79
773.83	2783.19
774.01	2691.03
774.20	2680.79
774.38	2789.33
774.56	2674.65
774.75	2680.79
774.93	2701.27
775.11	2719.70
775.29	2680.79
775.48	2660.31
775.66	2650.07
775.84	2668.50
776.02	2637.78
776.21	2670.55
776.39	2758.61
776.57	2725.85
776.75	2627.54
776.94	2711.51
777.12	2678.74
777.30	2635.74
777.48	2631.64
777.67	2725.85
777.85	2715.61
778.03	2695.13
778.21	2734.04
778.40	2674.65
778.58	2676.70
778.76	2734.04
778.94	2682.84
779.13	2664.41
779.31	2668.50
779.49	2660.31
779.67	2705.37
779.86	2672.60
780.04	2736.09
780.22	2680.79
780.40	2684.89
780.58	2703.32
780.77	2662.36
780.95	2695.13
781.13	2785.24
781.31	2676.70
781.49	2666.46
781.68	2605.02
781.86	2625.50
782.04	2650.07
782.22	2668.50
782.40	2750.42
782.59	2662.36
782.77	2693.08
782.95	2611.16
783.13	2688.98
783.31	2562.01
783.50	2699.22
783.68	2717.65
783.86	2631.64
784.04	2629.59
784.22	2676.70
784.41	2598.87
784.59	2660.31
784.77	2600.92
784.95	2605.02
785.13	2668.50
785.32	2711.51
785.50	2705.37
785.68	2668.50
785.86	2617.30
786.04	2684.89
786.22	2678.74
786.41	2666.46
786.59	2721.75
786.77	2676.70
786.95	2717.65
787.13	2699.22
787.31	2684.89
787.50	2756.57
787.68	2672.60
787.86	2631.64
788.04	2721.75
788.22	2660.31
788.40	2791.38
788.58	2670.55
788.77	2674.65
788.95	2715.61
789.13	2684.89
789.31	2746.33
789.49	2699.22
789.67	2594.78
789.85	2664.41
790.04	2680.79
790.22	2678.74
790.40	2709.46
790.58	2713.56
790.76	2637.78
790.94	2658.26
791.12	2678.74
791.30	2684.89
791.49	2756.57
791.67	2695.13
791.85	2688.98
792.03	2703.32
792.21	2664.41
792.39	2680.79
792.57	2633.69
792.75	2650.07
792.93	2666.46
793.12	2670.55
793.30	2711.51
793.48	2676.70
793.66	2668.50
793.84	2660.31
794.02	2637.78
794.20	2752.47
794.38	2639.83
794.56	2734.04
794.74	2668.50
794.93	2682.84
795.11	2682.84
795.29	2695.13
795.47	2643.93
795.65	2701.27
795.83	2631.64
796.01	2656.22
796.19	2617.30
796.37	2750.42
796.55	2705.37
796.73	2654.17
796.91	2744.28
797.09	2697.17
797.28	2705.37
797.46	2617.30
797.64	2695.13
797.82	2777.05
798.00	2645.98
798.18	2686.94
798.36	2631.64
798.54	2777.05
798.72	2736.09
798.90	2654.17
799.08	2740.18
799.26	2670.55
799.44	2666.46
799.62	2707.41
799.80	2756.57
799.98	2598.87
800.16	2731.99
800.34	2680.79
800.53	2709.46
800.71	2623.45
800.89	2670.55
801.07	2635.74
801.25	2699.22
801.43	2795.48
801.61	2748.37
801.79	2674.65
801.97	2729.94
802.15	2709.46
802.33	2617.30
802.51	2684.89
802.69	2643.93
802.87	2699.22
803.05	2639.83
803.23	2701.27
803.41	2713.56
803.59	2734.04
803.77	2664.41
803.95	2703.32
804.13	2668.50
804.31	2703.32
804.49	2615.26
804.67	2621.40
804.85	2707.41
805.03	2775.00
805.21	2670.55
805.39	2592.73
805.57	2674.65
805.75	2668.50
805.93	2668.50
806.11	2756.57
806.29	2643.93
806.47	2631.64
806.65	2701.27
806.83	2684.89
807.01	2754.52
807.19	2602.97
807.37	2703.32
807.55	2729.94
807.73	2705.37
807.91	2666.46
808.09	2709.46
808.27	2600.92
808.45	2691.03
808.62	2654.17
808.80	2697.17
808.98	2746.33
809.16	2684.89
809.34	2709.46
809.52	2748.37
809.70	2670.55
809.88	2658.26
810.06	2693.08
810.24	2734.04
810.42	2631.64
810.60	2559.96
810.78	2742.23
810.96	2627.54
811.14	2643.93
811.32	2719.70
811.50	2684.89
811.68	2656.22
811.86	2762.71
812.03	2672.60
812.21	2686.94
812.39	2668.50
812.57	2670.55
812.75	2711.51
812.93	2736.09
813.11	2736.09
813.29	2615.26
813.47	2703.32
813.65	2719.70
813.83	2674.65
814.01	2699.22
814.19	2760.66
814.36	2711.51
814.54	2691.03
814.72	2742.23
814.90	2615.26
815.08	2731.99
815.26	2711.51
815.44	2717.65
815.62	2566.10
815.80	2691.03
815.98	2672.60
816.15	2658.26
816.33	2631.64
816.51	2715.61
816.69	2635.74
816.87	2670.55
817.05	2635.74
817.23	2658.26
817.41	2643.93
817.59	2676.70
817.76	2572.25
817.94	2688.98
818.12	2750.42
818.30	2615.26
818.48	2717.65
818.66	2768.85
818.84	2666.46
819.02	2668.50
819.19	2752.47
819.37	2623.45
819.55	2645.98
819.73	2664.41
819.91	2746.33
820.09	2744.28
820.27	2670.55
820.44	2744.28
820.62	2600.92
820.80	2699.22
820.98	2617.30
821.16	2756.57
821.34	2678.74
821.51	2717.65
821.69	2566.10
821.87	2631.64
822.05	2660.31
822.23	2748.37
822.41	2598.87
822.58	2670.55
822.76	2670.55
822.94	2725.85
823.12	2701.27
823.30	2760.66
823.48	2727.89
823.65	2641.88
823.83	2742.23
824.01	2619.35
824.19	2707.41
824.37	2723.80
824.55	2648.02
824.72	2688.98
824.90	2721.75
825.08	2709.46
825.26	2729.94
825.44	2731.99
825.61	2686.94
825.79	2641.88
825.97	2684.89
826.15	2678.74
826.33	2676.70
826.50	2768.85
826.68	2566.10
826.86	2680.79
827.04	2686.94
827.22	2684.89
827.39	2711.51
827.57	2625.50
827.75	2695.13
827.93	2629.59
828.10	2693.08
828.28	2666.46
828.46	2574.30
828.64	2686.94
828.82	2719.70
828.99	2729.94
829.17	2611.16
829.35	2662.36
829.53	2678.74
829.70	2686.94
829.88	2674.65
830.06	2676.70
830.24	2658.26
830.41	2711.51
830.59	2658.26
830.77	2738.13
830.95	2750.42
831.12	2680.79
831.30	2740.18
831.48	2688.98
831.66	2727.89
831.83	2693.08
832.01	2699.22
832.19	2688.98
832.37	2666.46
832.54	2719.70
832.72	2639.83
832.90	2709.46
833.08	2654.17
833.25	2709.46
833.43	2691.03
833.61	2703.32
833.79	2631.64
833.96	2621.40
834.14	2631.64
834.32	2680.79
834.49	2576.34
834.67	2793.43
834.85	2654.17
835.03	2719.70
835.20	2678.74
835.38	2648.02
835.56	2691.03
835.73	2633.69
835.91	2637.78
836.09	2682.84
836.27	2625.50
836.44	2648.02
836.62	2619.35
836.80	2682.84
836.97	2701.27
837.15	2705.37
837.33	2707.41
837.50	2635.74
837.68	2672.60
837.86	2754.52
838.03	2789.33
838.21	2709.46
838.39	2754.52
838.57	2699.22
838.74	2715.61
838.92	2648.02
839.10	2676.70
839.27	2641.88
839.45	2713.56
839.63	2738.13
839.80	2699.22
839.98	2652.12
840.16	2701.27
840.33	2658.26
840.51	2723.80
840.69	2709.46
840.86	2639.83
841.04	2713.56
841.22	2684.89
841.39	2676.70
841.57	2643.93
841.74	2645.98
841.92	2707.41
842.10	2664.41
842.27	2660.31
842.45	2660.31
842.63	2592.73
842.80	2709.46
842.98	2650.07
843.16	2742.23
843.33	2635.74
843.51	2746.33
843.69	2652.12
843.86	2680.79
844.04	2713.56
844.21	2676.70
844.39	2666.46
844.57	2725.85
844.74	2670.55
844.92	2695.13
845.10	2619.35
845.27	2639.83
845.45	2664.41
845.62	2703.32
845.80	2707.41
845.98	2639.83
846.15	2645.98
846.33	2756.57
846.50	2727.89
846.68	2709.46
846.86	2691.03
847.03	2715.61
847.21	2684.89
847.38	2695.13
847.56	2693.08
847.74	2672.60
847.91	2693.08
848.09	2701.27
848.26	2695.13
848.44	2746.33
848.62	2695.13
848.79	2631.64
848.97	2652.12
849.14	2674.65
849.32	2658.26
849.49	2645.98
849.67	2711.51
849.85	2693.08
850.02	2684.89
850.20	2701.27
850.37	2617.30
850.55	2605.02
850.72	2635.74
850.90	2631.64
851.08	2660.31
851.25	2705.37
851.43	2707.41
851.60	2672.60
851.78	2588.63
851.95	2709.46
852.13	2650.07
852.30	2664.41
852.48	2564.06
852.65	2723.80
852.83	2672.60
853.01	2639.83
853.18	2736.09
853.36	2736.09
853.53	2697.17
853.71	2568.15
853.88	2703.32
854.06	2654.17
854.23	2731.99
854.41	2662.36
854.58	2766.81
854.76	2662.36
854.93	2711.51
855.11	2680.79
855.28	2719.70
855.46	2623.45
855.63	2650.07
855.81	2731.99
855.99	2613.21
856.16	2691.03
856.34	2670.55
856.51	2701.27
856.69	2611.16
856.86	2650.07
857.04	2705.37
857.21	2723.80
857.39	2668.50
857.56	2697.17
857.74	2627.54
857.91	2748.37
858.09	2701.27
858.26	2701.27
858.44	2662.36
858.61	2680.79
858.78	2725.85
858.96	2615.26
859.13	2676.70
859.31	2715.61
859.48	2637.78
859.66	2648.02
859.83	2658.26
860.01	2701.27
860.18	2656.22
860.36	2695.13
860.53	2592.73
860.71	2721.75
860.88	2672.60
861.06	2715.61
861.23	2625.50
861.41	2717.65
861.58	2600.92
861.75	2674.65
861.93	2648.02
862.10	2668.50
862.28	2688.98
862.45	2680.79
862.63	2684.89
862.80	2666.46
862.98	2721.75
863.15	2633.69
863.32	2764.76
863.50	2713.56
863.67	2635.74
863.85	2785.24
864.02	2701.27
864.20	2672.60
864.37	2666.46
864.55	2766.81
864.72	2666.46
864.89	2750.42
865.07	2678.74
865.24	2697.17
865.42	2668.50
865.59	2725.85
865.76	2754.52
865.94	2699.22
866.11	2695.13
866.29	2766.81
866.46	2619.35
866.64	2703.32
866.81	2652.12
866.98	2740.18
867.16	2668.50
867.33	2684.89
867.51	2756.57
867.68	2680.79
867.85	2713.56
868.03	2631.64
868.20	2598.87
868.38	2701.27
868.55	2645.98
868.72	2756.57
868.90	2654.17
869.07	2736.09
869.24	2766.81
869.42	2695.13
869.59	2619.35
869.77	2617.30
869.94	2719.70
870.11	2721.75
870.29	2666.46
870.46	2660.31
870.63	2701.27
870.81	2715.61
870.98	2760.66
871.16	2701.27
871.33	2742.23
871.50	2721.75
871.68	2680.79
871.85	2670.55
872.02	2717.65
872.20	2664.41
872.37	2658.26
872.54	2588.63
872.72	2744.28
872.89	2684.89
873.06	2699.22
873.24	2668.50
873.41	2645.98
873.58	2707.41
873.76	2676.70
873.93	2688.98
874.10	2660.31
874.28	2711.51
874.45	2648.02
874.62	2783.19
874.80	2613.21
874.97	2725.85
875.14	2658.26
875.32	2674.65
875.49	2664.41
875.66	2727.89
875.84	2656.22
876.01	2725.85
876.18	2697.17
876.36	2801.62
876.53	2584.54
876.70	2691.03
876.88	2721.75
877.05	2703.32
877.22	2637.78
877.39	2684.89
877.57	2586.58
877.74	2748.37
877.91	2723.80
878.09	2695.13
878.26	2611.16
878.43	2627.54
878.61	2709.46
878.78	2623.45
878.95	2666.46
879.12	2615.26
879.30	2721.75
879.47	2656.22
879.64	2572.25
879.81	2680.79
879.99	2756.57
880.16	2674.65
880.33	2789.33
880.51	2695.13
880.68	2682.84
880.85	2738.13
881.02	2705.37
881.20	2648.02
881.37	2801.62
881.54	2688.98
881.71	2707.41
881.89	2662.36
882.06	2658.26
882.23	2731.99
882.40	2670.55
882.58	2623.45
882.75	2682.84
882.92	2672.60
883.09	2652.12
883.27	2662.36
883.44	2731.99
883.61	2684.89
883.78	2678.74
883.96	2697.17
884.13	2605.02
884.30	2623.45
884.47	2701.27
884.65	2637.78
884.82	2674.65
884.99	2645.98
885.16	2609.11
885.33	2668.50
885.51	2678.74
885.68	2578.39
885.85	2744.28
886.02	2619.35
886.20	2725.85
886.37	2637.78
886.54	2693.08
886.71	2699.22
886.88	2664.41
887.06	2672.60
887.23	2686.94
887.40	2660.31
887.57	2643.93
887.74	2736.09
887.92	2662.36
888.09	2625.50
888.26	2557.91
888.43	2676.70
888.60	2629.59
888.77	2711.51
888.95	2713.56
889.12	2740.18
889.29	2734.04
889.46	2666.46
889.63	2629.59
889.81	2654.17
889.98	2660.31
890.15	2676.70
890.32	2676.70
890.49	2707.41
890.66	2674.65
890.84	2664.41
891.01	2705.37
891.18	2590.68
891.35	2672.60
891.52	2676.70
891.69	2645.98
891.87	2731.99
892.04	2682.84
892.21	2662.36
892.38	2623.45
892.55	2682.84
892.72	2746.33
892.89	2680.79
893.07	2752.47
893.24	2695.13
893.41	2664.41
893.58	2678.74
893.75	2691.03
893.92	2703.32
894.09	2703.32
894.27	2666.46
894.44	2666.46
894.61	2672.60
894.78	2662.36
894.95	2662.36
895.12	2635.74
895.29	2721.75
895.46	2699.22
895.64	2596.82
895.81	2650.07
895.98	2627.54
896.15	2662.36
896.32	2758.61
896.49	2609.11
896.66	2709.46
896.83	2738.13
897.00	2617.30
897.17	2619.35
897.35	2627.54
897.52	2738.13
897.69	2666.46
897.86	2725.85
898.03	2750.42
898.20	2705.37
898.37	2609.11
898.54	2705.37
898.71	2598.87
898.88	2631.64
899.05	2625.50
899.23	2672.60
899.40	2605.02
899.57	2637.78
899.74	2650.07
899.91	2750.42
900.08	2715.61
900.25	2723.80
900.42	2613.21
900.59	2697.17
900.76	2717.65
900.93	2668.50
901.10	2656.22
901.27	2637.78
901.44	2699.22
901.62	2668.50
901.79	2688.98
901.96	2670.55
902.13	2633.69
902.30	2607.06
902.47	2701.27
902.64	2645.98
902.81	2703.32
902.98	2627.54
903.15	2740.18
903.32	2713.56
903.49	2645.98
903.66	2662.36
903.83	2713.56
904.00	2701.27
904.17	2826.20
904.34	2654.17
904.51	2674.65
904.68	2645.98
904.85	2643.93
905.02	2654.17
905.19	2666.46
905.36	2672.60
905.53	2625.50
905.70	2664.41
905.87	2740.18
906.04	2717.65
906.21	2678.74
906.38	2721.75
906.55	2781.14
906.72	2668.50
906.89	2631.64
907.06	2617.30
907.23	2744.28
907.40	2688.98
907.57	2701.27
907.74	2678.74
907.91	2660.31
908.08	2658.26
908.25	2715.61
908.42	2545.63
908.59	2629.59
908.76	2697.17
908.93	2754.52
909.10	2639.83
909.27	2721.75
909.44	2670.55
909.61	2613.21
909.78	2699.22
909.95	2715.61
910.12	2678.74
910.29	2592.73
910.46	2719.70
910.63	2734.04
910.80	2676.70
910.97	2686.94
911.14	2734.04
911.31	2731.99
911.48	2701.27
911.65	2713.56
911.82	2740.18
911.99	2656.22
912.16	2693.08
912.32	2672.60
912.49	2670.55
912.66	2705.37
912.83	2600.92
913.00	2758.61
913.17	2756.57
913.34	2674.65
913.51	2744.28
913.68	2656.22
913.85	2725.85
914.02	2684.89
914.19	2656.22
914.36	2760.66
914.53	2674.65
914.70	2725.85
914.86	2602.97
915.03	2682.84
915.20	2719.70
915.37	2615.26
915.54	2717.65
915.71	2729.94
915.88	2688.98
916.05	2727.89
916.22	2633.69
916.39	2648.02
916.56	2711.51
916.72	2695.13
916.89	2777.05
917.06	2783.19
917.23	2752.47
917.40	2670.55
917.57	2707.41
917.74	2736.09
917.91	2611.16
918.08	2678.74
918.24	2650.07
918.41	2705.37
918.58	2785.24
918.75	2652.12
918.92	2752.47
919.09	2729.94
919.26	2731.99
919.43	2740.18
919.59	2734.04
919.76	2670.55
919.93	2678.74
920.10	2750.42
920.27	2668.50
920.44	2754.52
920.61	2650.07
920.77	2686.94
920.94	2783.19
921.11	2717.65
921.28	2633.69
921.45	2594.78
921.62	2670.55
921.79	2664.41
921.95	2582.49
922.12	2688.98
922.29	2627.54
922.46	2625.50
922.63	2666.46
922.80	2707.41
922.96	2715.61
923.13	2754.52
923.30	2664.41
923.47	2721.75
923.64	2779.09
923.81	2676.70
923.97	2670.55
924.14	2617.30
924.31	2658.26
924.48	2662.36
924.65	2779.09
924.81	2584.54
924.98	2607.06
925.15	2693.08
925.32	2654.17
925.49	2654.17
925.66	2705.37
925.82	2666.46
925.99	2648.02
926.16	2662.36
926.33	2686.94
926.50	2707.41
926.66	2668.50
926.83	2645.98
927.00	2719.70
927.17	2686.94
927.33	2660.31
927.50	2656.22
927.67	2731.99
927.84	2605.02
928.01	2723.80
928.17	2602.97
928.34	2637.78
928.51	2668.50
928.68	2625.50
928.84	2688.98
929.01	2713.56
929.18	2723.80
929.35	2639.83
929.52	2746.33
929.68	2617.30
929.85	2699.22
930.02	2672.60
930.19	2670.55
930.35	2744.28
930.52	2717.65
930.69	2656.22
930.86	2645.98
931.02	2613.21
931.19	2641.88
931.36	2729.94
931.53	2678.74
931.69	2760.66
931.86	2658.26
932.03	2594.78
932.20	2707.41
932.36	2740.18
932.53	2707.41
932.70	2680.79
932.86	2750.42
933.03	2619.35
933.20	2684.89
933.37	2676.70
933.53	2785.24
933.70	2701.27
933.87	2721.75
934.04	2729.94
934.20	2557.91
934.37	2641.88
934.54	2693.08
934.70	2637.78
934.87	2629.59
935.04	2748.37
935.20	2635.74
935.37	2697.17
935.54	2637.78
935.71	2711.51
935.87	2648.02
936.04	2734.04
936.21	2633.69
936.37	2670.55
936.54	2625.50
936.71	2740.18
936.87	2680.79
937.04	2627.54
937.21	2760.66
937.37	2660.31
937.54	2623.45
937.71	2699.22
937.88	2762.71
938.04	2736.09
938.21	2697.17
938.38	2723.80
938.54	2648.02
938.71	2715.61
938.88	2645.98
939.04	2682.84
939.21	2582.49
939.38	2678.74
939.54	2717.65
939.71	2645.98
939.87	2746.33
940.04	2650.07
940.21	2699.22
940.37	2676.70
940.54	2731.99
940.71	2658.26
940.87	2672.60
941.04	2680.79
941.21	2664.41
941.37	2688.98
941.54	2705.37
941.71	2666.46
941.87	2686.94
942.04	2645.98
942.20	2715.61
942.37	2686.94
942.54	2672.60
942.70	2719.70
942.87	2727.89
943.04	2611.16
943.20	2666.46
943.37	2609.11
943.53	2625.50
943.70	2617.30
943.87	2697.17
944.03	2648.02
944.20	2693.08
944.36	2750.42
944.53	2607.06
944.70	2654.17
944.86	2736.09
945.03	2676.70
945.19	2734.04
945.36	2711.51
945.53	2707.41
945.69	2748.37
945.86	2693.08
946.02	2742.23
946.19	2748.37
946.36	2631.64
946.52	2734.04
946.69	2664.41
946.85	2746.33
947.02	2713.56
947.18	2740.18
947.35	2643.93
947.52	2711.51
947.68	2719.70
947.85	2715.61
948.01	2705.37
948.18	2652.12
948.34	2637.78
948.51	2662.36
948.68	2688.98
948.84	2727.89
949.01	2766.81
949.17	2707.41
949.34	2699.22
949.50	2695.13
949.67	2691.03
949.83	2766.81
950.00	2590.68
950.17	2750.42
950.33	2678.74
950.50	2693.08
950.66	2680.79
950.83	2719.70
950.99	2648.02
951.16	2699.22
951.32	2697.17
951.49	2740.18
951.65	2600.92
951.82	2654.17
951.98	2672.60
952.15	2674.65
952.31	2697.17
952.48	2578.39
952.64	2613.21
952.81	2637.78
952.97	2688.98
953.14	2727.89
953.30	2619.35
953.47	2731.99
953.64	2707.41
953.80	2650.07
953.97	2580.44
954.13	2754.52
954.30	2672.60
954.46	2619.35
954.63	2631.64
954.79	2744.28
954.95	2699.22
955.12	2711.51
955.28	2709.46
955.45	2748.37
955.61	2588.63
955.78	2635.74
955.94	2658.26
956.11	2672.60
956.27	2713.56
956.44	2625.50
956.60	2729.94
956.77	2652.12
956.93	2744.28
957.10	2801.62
957.26	2697.17
957.43	2731.99
957.59	2754.52
957.76	2686.94
957.92	2686.94
958.08	2654.17
958.25	2717.65
958.41	2699.22
958.58	2641.88
958.74	2600.92
958.91	2686.94
959.07	2676.70
959.24	2717.65
959.40	2668.50
959.56	2643.93
959.73	2707.41
959.89	2623.45
960.06	2676.70
960.22	2725.85
960.39	2680.79
960.55	2566.10
960.72	2707.41
960.88	2721.75
961.04	2672.60
961.21	2682.84
961.37	2731.99
961.54	2639.83
961.70	2617.30
961.86	2744.28
962.03	2721.75
962.19	2746.33
962.36	2740.18
962.52	2664.41
962.69	2633.69
962.85	2666.46
963.01	2645.98
963.18	2668.50
963.34	2699.22
963.51	2697.17
963.67	2807.77
963.83	2723.80
964.00	2693.08
964.16	2672.60
964.32	2658.26
964.49	2668.50
964.65	2602.97
964.82	2586.58
964.98	2719.70
965.14	2676.70
965.31	2734.04
965.47	2688.98
965.64	2660.31
965.80	2686.94
965.96	2607.06
966.13	2635.74
966.29	2744.28
966.45	2635.74
966.62	2682.84
966.78	2723.80
966.94	2725.85
967.11	2691.03
967.27	2701.27
967.43	2611.16
967.60	2746.33
967.76	2648.02
967.93	2693.08
968.09	2676.70
968.25	2697.17
968.42	2723.80
968.58	2695.13
968.74	2717.65
968.91	2668.50
969.07	2715.61
969.23	2693.08
969.40	2752.47
969.56	2643.93
969.72	2668.50
969.89	2578.39
970.05	2705.37
970.21	2756.57
970.38	2590.68
970.54	2676.70
970.70	2742.23
970.86	2756.57
971.03	2709.46
971.19	2670.55
971.35	2615.26
971.52	2693.08
971.68	2705.37
971.84	2717.65
972.01	2674.65
972.17	2678.74
972.33	2688.98
972.50	2691.03
972.66	2672.60
972.82	2693.08
972.98	2686.94
973.15	2707.41
973.31	2750.42
973.47	2695.13
973.64	2664.41
973.80	2731.99
973.96	2754.52
974.12	2590.68
974.29	2731.99
974.45	2654.17
974.61	2709.46
974.78	2662.36
974.94	2678.74
975.10	2578.39
975.26	2666.46
975.43	2721.75
975.59	2748.37
975.75	2756.57
975.91	2631.64
976.08	2742.23
976.24	2715.61
976.40	2746.33
976.56	2672.60
976.73	2662.36
976.89	2709.46
977.05	2709.46
977.21	2703.32
977.38	2674.65
977.54	2715.61
977.70	2660.31
977.86	2652.12
978.03	2625.50
978.19	2590.68
978.35	2721.75
978.51	2709.46
978.67	2619.35
978.84	2713.56
979.00	2707.41
979.16	2666.46
979.32	2611.16
979.49	2635.74
979.65	2699.22
979.81	2660.31
979.97	2676.70
980.13	2656.22
980.30	2656.22
980.46	2639.83
980.62	2631.64
980.78	2643.93
980.94	2707.41
981.11	2789.33
981.27	2777.05
981.43	2699.22
981.59	2742.23
981.75	2688.98
981.92	2738.13
982.08	2641.88
982.24	2721.75
982.40	2660.31
982.56	2707.41
982.73	2650.07
982.89	2721.75
983.05	2715.61
983.21	2701.27
983.37	2775.00
983.53	2693.08
983.70	2629.59
983.86	2607.06
984.02	2705.37
984.18	2684.89
984.34	2705.37
984.50	2621.40
984.67	2645.98
984.83	2719.70
984.99	2701.27
985.15	2633.69
985.31	2658.26
985.47	2727.89
985.64	2650.07
985.80	2742.23
985.96	2607.06
986.12	2709.46
986.28	2654.17
986.44	2688.98
986.60	2709.46
986.77	2699.22
986.93	2639.83
987.09	2682.84
987.25	2719.70
987.41	2697.17
987.57	2607.06
987.73	2768.85
987.89	2742.23
988.06	2641.88
988.22	2637.78
988.38	2707.41
988.54	2645.98
988.70	2656.22
988.86	2754.52
989.02	2711.51
989.18	2643.93
989.34	2674.65
989.51	2715.61
989.67	2699.22
989.83	2678.74
989.99	2701.27
990.15	2668.50
990.31	2623.45
990.47	2643.93
990.63	2658.26
990.79	2688.98
990.95	2758.61
991.12	2662.36
991.28	2709.46
991.44	2672.60
991.60	2744.28
991.76	2750.42
991.92	2658.26
992.08	2697.17
992.24	2854.87
992.40	2662.36
992.56	2701.27
992.72	2697.17
992.88	2678.74
993.04	2631.64
993.20	2600.92
993.37	2713.56
993.53	2666.46
993.69	2715.61
993.85	2691.03
994.01	2660.31
994.17	2633.69
994.33	2725.85
994.49	2553.82
994.65	2656.22
994.81	2590.68
994.97	2672.60
995.13	2725.85
995.29	2742.23
995.45	2662.36
995.61	2707.41
995.77	2666.46
995.93	2729.94
996.09	2656.22
996.25	2760.66
996.41	2701.27
996.57	2705.37
996.73	2744.28
996.89	2731.99
997.05	2695.13
997.21	2652.12
997.37	2703.32
997.53	2641.88
997.69	2660.31
997.86	2707.41
998.02	2693.08
998.18	2719.70
998.34	2779.09
998.50	2672.60
998.66	2688.98
998.82	2656.22
998.98	2674.65
999.14	2740.18
999.30	2715.61
999.45	2682.84
999.61	2695.13
999.77	2713.56
999.93	2582.49
1000.09	2627.54
1000.25	2709.46
1000.41	2731.99
1000.57	2674.65
1000.73	2662.36
1000.89	2680.79
1001.05	2705.37
1001.21	2635.74
1001.37	2688.98
1001.53	2723.80
1001.69	2678.74
1001.85	2695.13
1002.01	2656.22
1002.17	2625.50
1002.33	2717.65
1002.49	2695.13
1002.65	2711.51
1002.81	2736.09
1002.97	2652.12
1003.13	2688.98
1003.29	2645.98
1003.45	2678.74
1003.61	2695.13
1003.77	2615.26
1003.92	2703.32
1004.08	2658.26
1004.24	2711.51
1004.40	2662.36
1004.56	2572.25
1004.72	2736.09
1004.88	2684.89
1005.04	2727.89
1005.20	2768.85
1005.36	2764.76
1005.52	2654.17
1005.68	2648.02
1005.84	2629.59
1006.00	2625.50
1006.15	2688.98
1006.31	2686.94
1006.47	2654.17
1006.63	2707.41
1006.79	2693.08
1006.95	2613.21
1007.11	2674.65
1007.27	2797.53
1007.43	2668.50
1007.59	2664.41
1007.74	2641.88
1007.90	2725.85
1008.06	2762.71
1008.22	2652.12
1008.38	2637.78
1008.54	2717.65
1008.70	2643.93
1008.86	2691.03
1009.02	2709.46
1009.17	2731.99
1009.33	2664.41
1009.49	2779.09
1009.65	2693.08
1009.81	2668.50
1009.97	2746.33
1010.13	2678.74
1010.29	2703.32
1010.44	2619.35
1010.60	2791.38
1010.76	2731.99
1010.92	2637.78
1011.08	2678.74
1011.24	2660.31
1011.40	2652.12
1011.55	2717.65
1011.71	2633.69
1011.87	2695.13
1012.03	2631.64
1012.19	2684.89
1012.35	2688.98
1012.50	2717.65
1012.66	2641.88
1012.82	2686.94
1012.98	2672.60
1013.14	2748.37
1013.30	2713.56
1013.45	2766.81
1013.61	2703.32
1013.77	2736.09
1013.93	2639.83
1014.09	2555.86
1014.25	2598.87
1014.40	2744.28
1014.56	2719.70
1014.72	2666.46
1014.88	2621.40
1015.04	2760.66
1015.19	2731.99
1015.35	2695.13
1015.51	2664.41
1015.67	2723.80
1015.83	2731.99
1015.98	2738.13
1016.14	2600.92
1016.30	2691.03
1016.46	2795.48
1016.62	2668.50
1016.77	2650.07
1016.93	2615.26
1017.09	2648.02
1017.25	2723.80
1017.41	2779.09
1017.56	2717.65
1017.72	2772.95
1017.88	2682.84
1018.04	2643.93
1018.19	2686.94
1018.35	2652.12
1018.51	2693.08
1018.67	2652.12
1018.83	2701.27
1018.98	2666.46
1019.14	2684.89
1019.30	2639.83
1019.46	2668.50
1019.61	2643.93
1019.77	2660.31
1019.93	2570.20
1020.09	2731.99
1020.24	2709.46
1020.40	2652.12
1020.56	2656.22
1020.72	2693.08
1020.87	2676.70
1021.03	2688.98
1021.19	2734.04
1021.34	2686.94
1021.50	2734.04
1021.66	2631.64
1021.82	2674.65
1021.97	2676.70
1022.13	2695.13
1022.29	2725.85
1022.45	2756.57
1022.60	2701.27
1022.76	2713.56
1022.92	2707.41
1023.07	2578.39
1023.23	2721.75
1023.39	2676.70
1023.55	2658.26
1023.70	2627.54
1023.86	2643.93
1024.02	2670.55
1024.17	2709.46
1024.33	2734.04
1024.49	2693.08
1024.64	2668.50
1024.80	2727.89
1024.96	2688.98
1025.12	2631.64
1025.27	2705.37
1025.43	2652.12
1025.59	2641.88
1025.74	2691.03
1025.90	2691.03
1026.06	2645.98
1026.21	2705.37
1026.37	2684.89
1026.53	2611.16
1026.68	2652.12
1026.84	2699.22
1027.00	2617.30
1027.15	2729.94
1027.31	2742.23
1027.47	2680.79
1027.62	2627.54
1027.78	2684.89
1027.94	2684.89
1028.09	2684.89
>>>>>End Processed Spectral Data<<<<<
